Round Number, Network Remaining Energy
-1,25.000000
1,24.993899
2,24.953543
3,24.888208
4,24.851416
5,24.807309
6,24.751264
7,24.691403
8,24.651126
9,24.594360
10,24.557553
11,24.522563
12,24.488669
13,24.479580
14,24.420704
15,24.385498
16,24.315409
17,24.251313
18,24.208315
19,24.136524
20,24.078725
21,24.036403
22,23.999065
23,23.937016
24,23.900615
25,23.840743
26,23.807319
27,23.773559
28,23.673774
29,23.659519
30,23.622075
31,23.613254
32,23.492703
33,23.430461
34,23.385745
35,23.348742
36,23.294118
37,23.247249
38,23.187268
39,23.155012
40,23.098659
41,23.048129
42,23.014693
43,22.950190
44,22.885521
45,22.838210
46,22.779400
47,22.716574
48,22.665530
49,22.612234
50,22.575440
51,22.524195
52,22.460361
53,22.423857
54,22.376814
55,22.343989
56,22.290833
57,22.220578
58,22.168549
59,22.105497
60,22.048278
61,22.013441
62,21.969288
63,21.910737
64,21.849258
65,21.723748
66,21.674211
67,21.640018
68,21.582579
69,21.518174
70,21.474209
71,21.432840
72,21.385794
73,21.331483
74,21.297599
75,21.263916
76,21.189945
77,21.151299
78,21.141532
79,21.102815
80,20.944615
81,20.893455
82,20.884334
83,20.849158
84,20.812218
85,20.735373
86,20.688614
87,20.620132
88,20.581162
89,20.544731
90,20.510913
91,20.450122
92,20.401865
93,20.369739
94,20.336171
95,20.270818
96,20.258205
97,20.206405
98,20.173455
99,20.111087
100,20.074201
101,20.007698
102,19.955894
103,19.918060
104,19.879454
105,19.869837
106,19.835978
107,19.753542
108,19.718455
109,19.654567
110,19.612583
111,19.550898
112,19.506757
113,19.470343
114,19.436446
115,19.370237
116,19.287124
117,19.277410
118,19.245068
119,19.209654
120,19.152694
121,19.117252
122,19.025860
123,18.961984
124,18.905606
125,18.842695
126,18.792942
127,18.735859
128,18.702498
129,18.692888
130,18.611446
131,18.577103
132,18.529170
133,18.495288
134,18.428024
135,18.387744
136,18.353429
137,18.320555
138,18.288430
139,18.221491
140,18.182749
141,18.132651
142,18.074402
143,18.064166
144,18.016066
145,17.946566
146,17.848437
147,17.785523
148,17.748216
149,17.701190
150,17.666247
151,17.603020
152,17.567706
153,17.530818
154,17.483933
155,17.418561
156,17.355353
157,17.320387
158,17.282290
159,17.231570
160,17.183448
161,17.126586
162,17.056458
163,17.025176
164,16.980974
165,16.944112
166,16.900458
167,16.844325
168,16.807851
169,16.753556
170,16.706365
171,16.669400
172,16.635990
173,16.599523
174,16.513995
175,16.423295
176,16.414191
177,16.358169
178,16.278389
179,16.196935
180,16.153061
181,16.115999
182,16.065844
183,16.030469
184,15.963353
185,15.926634
186,15.851456
187,15.812662
188,15.743347
189,15.706673
190,15.652650
191,15.618065
192,15.555776
193,15.476348
194,15.441285
195,15.284805
196,15.251041
197,15.197274
198,15.135959
199,15.102234
200,15.062013
201,15.027084
202,14.966925
203,14.911851
204,14.852825
205,14.805900
206,14.758600
207,14.694112
208,14.646496
209,14.597189
210,14.562452
211,14.530390
212,14.521236
213,14.462993
214,14.412607
215,14.352005
216,14.300401
217,14.266243
218,14.217153
219,14.147114
220,14.107780
221,14.074099
222,14.013256
223,13.976964
224,13.936383
225,13.878263
226,13.832512
227,13.799041
228,13.789467
229,13.756252
230,13.695579
231,13.655487
232,13.602920
233,13.564175
234,13.528438
235,13.463211
236,13.402171
237,13.369950
238,13.360399
239,13.326444
240,13.294797
241,13.248738
242,13.217845
243,13.161802
244,13.107278
245,13.022839
246,12.975900
247,12.939382
248,12.904103
249,12.894471
250,12.840457
251,12.796159
252,12.699868
253,12.646036
254,12.637327
255,12.588630
256,12.549105
257,12.516420
258,12.463433
259,12.424840
260,12.393427
261,12.355894
262,12.316179
263,12.283917
264,12.253427
265,12.196981
266,11.996181
267,11.962983
268,11.871695
269,11.811984
270,11.789719
271,11.730201
272,11.697173
273,11.644822
274,11.617396
275,11.578751
276,11.548964
277,11.540364
278,11.498817
279,11.471636
280,11.437980
281,11.409820
282,11.376670
283,11.334637
284,11.279324
285,11.267459
286,11.235217
287,11.200852
288,11.145460
289,11.117504
290,11.091829
291,11.052756
292,11.044356
293,11.008779
294,10.975282
295,10.942754
296,10.917511
297,10.885569
298,10.858287
299,10.842524
300,10.814914
301,10.788891
302,10.756453
303,10.724956
304,10.701423
305,10.675410
306,10.649021
307,10.639415
308,10.583632
309,10.575432
310,10.552488
311,10.517498
312,10.483710
313,10.441183
314,10.412917
315,10.386488
316,10.337633
317,10.310288
318,10.286978
319,10.262922
320,10.224747
321,10.190678
322,10.167950
323,10.132591
324,10.119022
325,10.111022
326,10.088810
327,10.054164
328,10.022669
329,9.998132
330,9.970985
331,9.957866
332,9.929924
333,9.905710
334,9.883134
335,9.854099
336,9.817904
337,9.794421
338,9.767623
339,9.741869
340,9.694542
341,9.672441
342,9.650914
343,9.628037
344,9.585111
345,9.556200
346,9.532189
347,9.497187
348,9.487101
349,9.460699
350,9.439953
351,9.414783
352,9.406579
353,9.398779
354,9.365908
355,9.338396
356,9.276684
357,9.253422
358,9.225186
359,9.195798
360,9.166090
361,9.142677
362,9.121080
363,9.082660
364,9.059210
365,9.024256
366,9.010047
367,8.975721
368,8.912405
369,8.888768
370,8.858980
371,8.833060
372,8.810965
373,8.799231
374,8.774293
375,8.742427
376,8.716761
377,8.695024
378,8.665280
379,8.644063
380,8.622809
381,8.602371
382,8.581715
383,8.531576
384,8.507767
385,8.497119
386,8.446694
387,8.418644
388,8.393642
389,8.372869
390,8.350518
391,8.325003
392,8.303971
393,8.282151
394,8.261347
395,8.254147
396,8.233407
397,8.207903
398,8.178588
399,8.154452
400,8.130110
401,8.091085
402,8.068927
403,8.045633
404,8.027007
405,8.014463
406,7.986155
407,7.964486
408,7.939568
409,7.862839
410,7.850462
411,7.827344
412,7.800460
413,7.777308
414,7.752810
415,7.725616
416,7.702678
417,7.683107
418,7.659380
419,7.637511
420,7.610006
421,7.588936
422,7.563249
423,7.542204
424,7.478061
425,7.455189
426,7.436002
427,7.413867
428,7.388305
429,7.367907
430,7.338129
431,7.318061
432,7.295557
433,7.269706
434,7.249987
435,7.230720
436,7.202499
437,7.182198
438,7.135126
439,7.128126
440,7.100283
441,7.069872
442,7.048926
443,7.040383
444,7.018483
445,6.992969
446,6.970052
447,6.947258
448,6.927210
449,6.883634
450,6.856702
451,6.829668
452,6.805899
453,6.781814
454,6.753739
455,6.740030
456,6.696453
457,6.676120
458,6.655076
459,6.635816
460,6.615141
461,6.593545
462,6.573831
463,6.551923
464,6.525080
465,6.505049
466,6.479352
467,6.453742
468,6.428087
469,6.408556
470,6.383101
471,6.346524
472,6.326635
473,6.304344
474,6.279029
475,6.253482
476,6.233799
477,6.214338
478,6.190975
479,6.167586
480,6.139760
481,6.112572
482,6.093279
483,6.072755
484,6.054762
485,6.036471
486,6.011210
487,5.986121
488,5.962771
489,5.933400
490,5.913197
491,5.891023
492,5.869504
493,5.848065
494,5.799386
495,5.781344
496,5.752355
497,5.730486
498,5.709470
499,5.691750
500,5.668069
501,5.648736
502,5.616657
503,5.604262
504,5.583267
505,5.565520
506,5.559120
507,5.552720
508,5.539071
509,5.521798
510,5.501639
511,5.490671
512,5.445119
513,5.426577
514,5.409626
515,5.389901
516,5.370865
517,5.352834
518,5.332419
519,5.315220
520,5.297974
521,5.278960
522,5.242863
523,5.222203
524,5.204959
525,5.186052
526,5.168253
527,5.130677
528,5.098641
529,5.092641
530,5.059461
531,5.050018
532,5.032643
533,5.013663
534,4.993315
535,4.972420
536,4.954656
537,4.936189
538,4.911157
539,4.893397
540,4.875596
541,4.855728
542,4.837031
543,4.831031
544,4.809752
545,4.793243
546,4.776038
547,4.759943
548,4.739506
549,4.722498
550,4.702318
551,4.693397
552,4.676445
553,4.650887
554,4.635953
555,4.619366
556,4.604019
557,4.581647
558,4.564441
559,4.551607
560,4.537901
561,4.517131
562,4.502596
563,4.489412
564,4.473206
565,4.458081
566,4.444577
567,4.431028
568,4.416126
569,4.403309
570,4.383809
571,4.371050
572,4.365850
573,4.351806
574,4.336652
575,4.323286
576,4.309793
577,4.294861
578,4.279467
579,4.259769
580,4.245870
581,4.232930
582,4.219237
583,4.205083
584,4.191522
585,4.176620
586,4.163441
587,4.148908
588,4.132465
589,4.112380
590,4.098280
591,4.084382
592,4.068904
593,4.055331
594,4.040522
595,4.026679
596,4.013295
597,3.999929
598,3.985566
599,3.980366
600,3.966898
601,3.953357
602,3.939661
603,3.926434
604,3.911072
605,3.896170
606,3.890970
607,3.885770
608,3.871491
609,3.857328
610,3.842294
611,3.829303
612,3.824103
613,3.809948
614,3.794750
615,3.781093
616,3.767644
617,3.752166
618,3.736695
619,3.717099
620,3.703081
621,3.689942
622,3.676381
623,3.662177
624,3.648971
625,3.633330
626,3.619850
627,3.606450
628,3.586912
629,3.559522
630,3.543715
631,3.527981
632,3.513340
633,3.499731
634,3.486471
635,3.481271
636,3.467302
637,3.452734
638,3.439049
639,3.423410
640,3.418210
641,3.405262
642,3.389838
643,3.376306
644,3.360828
645,3.355628
646,3.341753
647,3.328466
648,3.315134
649,3.300388
650,3.285839
651,3.269590
652,3.254827
653,3.232429
654,3.219292
655,3.203351
656,3.188309
657,3.173363
658,3.160083
659,3.147261
660,3.133586
661,3.117144
662,3.098537
663,3.093337
664,3.078797
665,3.059100
666,3.043901
667,3.026815
668,3.013602
669,2.999342
670,2.985321
671,2.972807
672,2.959003
673,2.942704
674,2.926706
675,2.913034
676,2.900111
677,2.885366
678,2.871682
679,2.866482
680,2.851956
681,2.836170
682,2.820912
683,2.807731
684,2.792979
685,2.765246
686,2.752271
687,2.737963
688,2.724378
689,2.709550
690,2.692889
691,2.678683
692,2.666084
693,2.650745
694,2.637932
695,2.625200
696,2.612762
697,2.600029
698,2.586469
699,2.574114
700,2.562177
701,2.557177
702,2.542555
703,2.529549
704,2.513682
705,2.500782
706,2.486657
707,2.469394
708,2.456856
709,2.445366
710,2.431379
711,2.417124
712,2.404746
713,2.390202
714,2.377750
715,2.360340
716,2.355340
717,2.342411
718,2.328197
719,2.314422
720,2.301340
721,2.282850
722,2.270911
723,2.257292
724,2.242917
725,2.231222
726,2.219955
727,2.215155
728,2.203256
729,2.185686
730,2.167926
731,2.156250
732,2.144720
733,2.131928
734,2.120601
735,2.108934
736,2.097271
737,2.081293
738,2.064609
739,2.059809
740,2.047462
741,2.029954
742,2.012332
743,2.001117
744,1.987231
745,1.975781
746,1.970981
747,1.957558
748,1.945308
749,1.931621
750,1.919250
751,1.906656
752,1.894673
753,1.883096
754,1.869361
755,1.857858
756,1.845067
757,1.827853
758,1.823053
759,1.812445
760,1.800030
761,1.789406
762,1.773806
763,1.769406
764,1.758777
765,1.754377
766,1.740415
767,1.729862
768,1.717455
769,1.706382
770,1.694006
771,1.682208
772,1.671501
773,1.658539
774,1.646189
775,1.635816
776,1.631416
777,1.619527
778,1.608104
779,1.596330
780,1.584510
781,1.574170
782,1.563959
783,1.549381
784,1.538195
785,1.522639
786,1.508116
787,1.496299
788,1.482423
789,1.469039
790,1.455654
791,1.446074
792,1.442074
793,1.430607
794,1.421284
795,1.411660
796,1.400593
797,1.396593
798,1.387697
799,1.377376
800,1.367702
801,1.363702
802,1.354534
803,1.345044
804,1.335511
805,1.326530
806,1.315667
807,1.311667
808,1.302201
809,1.292294
810,1.283064
811,1.272512
812,1.261457
813,1.251848
814,1.242094
815,1.233111
816,1.218898
817,1.209412
818,1.197929
819,1.188655
820,1.177576
821,1.169228
822,1.159439
823,1.150035
824,1.139483
825,1.129231
826,1.119108
827,1.104894
828,1.093839
829,1.084738
830,1.075168
831,1.064089
832,1.054887
833,1.043826
834,1.034406
835,1.025507
836,1.016467
837,1.005713
838,1.001913
839,0.998113
840,0.988293
841,0.977470
842,0.968725
843,0.960193
844,0.952054
845,0.943392
846,0.939792
847,0.931286
848,0.920509
849,0.911982
850,0.903617
851,0.892946
852,0.884695
853,0.876082
854,0.867859
855,0.858208
856,0.848251
857,0.837094
858,0.827907
859,0.819040
860,0.809655
861,0.801140
862,0.791726
863,0.788326
864,0.779975
865,0.771853
866,0.764134
867,0.755811
868,0.748223
869,0.740296
870,0.732682
871,0.725012
872,0.721612
873,0.714440
874,0.706608
875,0.698481
876,0.690185
877,0.686785
878,0.677882
879,0.668344
880,0.664944
881,0.657060
882,0.647868
883,0.639178
884,0.632062
885,0.623194
886,0.614252
887,0.605355
888,0.598476
889,0.595676
890,0.588842
891,0.582626
892,0.576025
893,0.569676
894,0.566876
895,0.560095
896,0.553430
897,0.550630
898,0.547830
899,0.540717
900,0.533936
901,0.526975
902,0.520692
903,0.513551
904,0.505892
905,0.498779
906,0.490911
907,0.484551
908,0.478006
909,0.475206
910,0.472406
911,0.464738
912,0.458947
913,0.452359
914,0.446190
915,0.443390
916,0.440590
917,0.437790
918,0.431821
919,0.429021
920,0.422224
921,0.419424
922,0.411145
923,0.403898
924,0.397738
925,0.391437
926,0.385299
927,0.378457
928,0.370589
929,0.363629
930,0.355350
931,0.348970
932,0.342475
933,0.336018
934,0.329221
935,0.326421
936,0.319460
937,0.312635
938,0.305918
939,0.299035
940,0.292669
941,0.286891
942,0.280898
943,0.274293
944,0.269050
945,0.266650
946,0.264250
947,0.257849
948,0.251291
949,0.245439
950,0.240101
951,0.237701
952,0.231688
953,0.229288
954,0.223022
955,0.217625
956,0.212017
957,0.209617
958,0.203215
959,0.197307
960,0.191705
961,0.185796
962,0.183396
963,0.178721
964,0.174977
965,0.170819
966,0.169019
967,0.167219
968,0.163280
969,0.159125
970,0.157325
971,0.155525
972,0.151377
973,0.149577
974,0.144464
975,0.142664
976,0.140864
977,0.136892
978,0.132873
979,0.128918
980,0.124962
981,0.123162
982,0.118995
983,0.113882
984,0.109724
985,0.105528
986,0.101380
987,0.099580
988,0.095039
989,0.093239
990,0.088963
991,0.085245
992,0.083445
993,0.079278
994,0.075721
995,0.074321
996,0.071179
997,0.067075
998,0.065675
999,0.064275
1000,0.062875
1001,0.059596
1002,0.058396
1003,0.057196
1004,0.054443
1005,0.052635
1006,0.051635
1007,0.050635
1008,0.048758
1009,0.047958
1010,0.047158
1011,0.045232
1012,0.044432
1013,0.042550
1014,0.041750
1015,0.040009
1016,0.039209
1017,0.038409
1018,0.037609
1019,0.035716
1020,0.033822
1021,0.033022
1022,0.032222
1023,0.031422
1024,0.030622
1025,0.028873
1026,0.027131
1027,0.026331
1028,0.025531
1029,0.024731
1030,0.023931
1031,0.022166
1032,0.020285
1033,0.019485
1034,0.018685
1035,0.016943
1036,0.016143
1037,0.015343
1038,0.014543
1039,0.013743
1040,0.011850
1041,0.011050
1042,0.010250
1043,0.008369
1044,0.007569
1045,0.005827
1046,0.003901
1047,0.003101
1048,0.002501
1049,0.001901
1050,0.001301
1051,0.000701
1052,0.000101
1053,0.000000
1054,0.000000
